# Z. Cao et al. (2024) Phys. Rev. Lett. 132, 131002
# [0] Energy	[1] lnA	[2] Lower Stat Error	[3] Upper Stat Error	[4] Lower Syst Error	[5] Upper Syst Error
3.548e+05 1.625e+00 4.000e-04 4.000e-04 8.190e-02 8.190e-02
4.467e+05 1.617e+00 5.000e-04 5.000e-04 8.150e-02 8.150e-02
5.623e+05 1.591e+00 6.000e-04 6.000e-04 8.020e-02 8.020e-02
7.079e+05 1.556e+00 8.000e-04 8.000e-04 7.850e-02 7.850e-02
8.913e+05 1.525e+00 9.000e-04 9.000e-04 7.710e-02 7.710e-02
1.122e+06 1.490e+00 1.100e-03 1.100e-03 7.560e-02 7.560e-02
1.413e+06 1.458e+00 1.300e-03 1.300e-03 7.420e-02 7.420e-02
1.778e+06 1.425e+00 1.600e-03 1.600e-03 7.290e-02 7.290e-02
2.239e+06 1.401e+00 2.000e-03 2.000e-03 7.220e-02 7.220e-02
2.818e+06 1.390e+00 2.400e-03 2.400e-03 7.220e-02 7.220e-02
3.548e+06 1.387e+00 3.000e-03 3.000e-03 7.290e-02 7.290e-02
4.467e+06 1.415e+00 3.700e-03 3.700e-03 7.530e-02 7.530e-02
5.623e+06 1.461e+00 4.600e-03 4.600e-03 7.880e-02 7.880e-02
7.079e+06 1.539e+00 5.700e-03 5.700e-03 8.410e-02 8.410e-02
8.913e+06 1.628e+00 7.300e-03 7.300e-03 9.030e-02 9.030e-02
1.122e+07 1.768e+00 9.200e-03 9.200e-03 9.940e-02 9.940e-02
1.413e+07 1.941e+00 1.180e-02 1.180e-02 1.105e-01 1.105e-01
1.778e+07 2.123e+00 1.470e-02 1.470e-02 1.226e-01 1.226e-01
2.239e+07 2.361e+00 1.840e-02 1.840e-02 1.383e-01 1.383e-01
2.818e+07 2.561e+00 2.250e-02 2.250e-02 1.530e-01 1.530e-01
