# Z. Cao et al., First Identification and Precise Spectral Measurement of the Proton Component in the Cosmic-Ray `Knee'. arXiv:2505.14447, 2025
# Model: EPOS-LHC
# [0] Energy (PeV)	[1] Flux (PeV^−1 m^−2 s^−1 sr^−1)	[2] Stat. error	[3] Syst. error
1.778279410038922925e-01 8.084000000000000528e-05 1.700000000000000135e-07 4.580000000000000195e-06
2.238721138568339486e-01 4.326000000000000255e-05 1.100000000000000056e-07 2.470000000000000068e-06
2.818382931264453717e-01 2.331000000000000213e-05 7.000000000000000477e-08 1.340000000000000088e-06
3.548133892335754158e-01 1.264000000000000095e-05 5.000000000000000435e-08 7.299999999999999987e-07
4.466835921509630380e-01 7.029999999999999608e-06 3.099999999999999966e-08 4.129999999999999527e-07
5.623413251903489618e-01 3.931999999999999792e-06 2.099999999999999945e-08 2.349999999999999735e-07
7.079457843841376885e-01 2.177000000000000078e-06 1.399999999999999963e-08 1.319999999999999909e-07
8.912509381337452297e-01 1.229999999999999870e-06 8.999999999999999527e-09 7.700000000000000128e-08
1.122018454301962898e+00 6.953999999999999404e-07 6.400000000000000233e-09 4.459999999999999571e-08
1.412537544622753716e+00 3.810999999999999913e-07 4.200000000000000386e-09 2.539999999999999914e-08
1.778279410038921871e+00 2.112999999999999929e-07 2.799999999999999844e-09 1.469999999999999928e-08
2.238721138568337654e+00 1.139999999999999885e-07 1.799999999999999781e-09 8.400000000000000771e-09
2.818382931264451940e+00 6.064000000000000566e-08 1.209999999999999957e-09 4.760000000000000106e-09
3.548133892335753270e+00 3.013999999999999725e-08 7.599999999999999605e-10 2.560000000000000259e-09
4.466835921509628271e+00 1.467000000000000166e-08 4.700000000000000313e-10 1.370000000000000232e-09
5.623413251903484955e+00 6.828000000000000823e-09 2.859999999999999947e-10 7.080000000000000367e-10
7.079457843841373332e+00 2.874000000000000208e-09 1.640000000000000282e-10 3.370000000000000253e-10
8.912509381337450520e+00 1.339000000000000029e-09 1.000000000000000166e-10 1.799999999999999988e-10
1.122018454301962365e+01 6.326999999999999968e-10 6.060000000000000270e-11 9.879999999999999745e-11
