# Z. Cao et al., Phys. Rev. Lett. 132, 131002
# [0] Energy (GeV)	[1] Flux (GeV^−1 m^−2 s^−1 sr^−1)	[2] Stat error	[3] Syst error
3.548133892335753189e+05 5.141299999999999994e-11 1.100000000000000046e-14 1.723999999999999924e-12
4.466835921509625623e+05 2.735100000000000008e-11 6.999999999999999361e-15 9.170000000000000306e-13
5.623413251903479686e+05 1.456700000000000124e-11 4.999999999999999994e-15 4.889999999999999358e-13
7.079457843841358554e+05 7.736300000000000468e-12 2.999999999999999839e-15 2.595000000000000050e-13
8.912509381337421946e+05 4.104899999999999604e-12 2.000000000000000155e-15 1.376999999999999838e-13
1.122018454301958438e+06 2.181599999999999913e-12 1.299999999999999825e-15 7.319999999999999354e-14
1.412537544622746762e+06 1.159699999999999996e-12 7.999999999999999833e-16 3.899999999999999790e-14
1.778279410038911970e+06 6.162000000000000401e-13 5.399999999999999986e-16 2.066999999999999864e-14
2.238721138568324037e+06 3.251400000000000161e-13 3.500000000000000173e-16 1.091000000000000097e-14
2.818382931264432147e+06 1.697200000000000079e-13 2.200000000000000250e-16 5.689999999999999768e-15
3.548133892335724086e+06 8.735599999999999401e-14 1.430000000000000064e-16 2.929999999999999885e-15
4.466835921509589069e+06 4.420699999999999909e-14 9.099999999999999958e-17 1.482999999999999840e-15
5.623413251903433353e+06 2.200300000000000038e-14 5.700000000000000177e-17 7.380000000000000605e-16
7.079457843841301277e+06 1.076000000000000129e-14 3.599999999999999949e-17 3.609999999999999989e-16
8.912509381337350234e+06 5.138200000000000544e-15 2.190000000000000211e-17 1.723000000000000338e-16
1.122018454301949218e+07 2.530100000000000230e-15 1.370000000000000106e-17 8.490000000000000892e-17
1.412537544622735307e+07 1.224000000000000168e-15 8.500000000000000993e-18 4.109999999999999855e-17
1.778279410038897395e+07 6.062200000000000175e-16 5.330000000000000143e-18 2.032999999999999890e-17
2.238721138568305597e+07 2.999999999999999937e-16 3.339999999999999946e-18 1.005999999999999886e-17
2.818382931264408678e+07 1.511200000000000032e-16 2.109999999999999943e-18 5.069999999999999985e-18
