# Z. Cao et al., Phys. Rev. Lett. 132, 131002
# [0] Energy (GeV)	[1] Flux (GeV^−1 m^−2 s^−1 sr^−1)	[2] Stat error	[3] Syst error
3.548133892335753189e+05 5.352700000000000164e-11 1.100000000000000046e-14 1.794999999999999925e-12
4.466835921509625623e+05 2.846199999999999888e-11 7.000000000000000150e-15 9.550000000000000707e-13
5.623413251903479686e+05 1.516299999999999910e-11 4.999999999999999994e-15 5.089999999999999516e-13
7.079457843841358554e+05 8.053599999999999530e-12 3.099999999999999886e-15 2.700999999999999800e-13
8.912509381337421946e+05 4.274100000000000135e-12 2.000000000000000155e-15 1.433999999999999999e-13
1.122018454301958438e+06 2.270999999999999916e-12 1.300000000000000022e-15 7.620000000000000600e-14
1.412537544622746762e+06 1.207099999999999976e-12 7.999999999999999833e-16 4.049999999999999782e-14
1.778279410038911970e+06 6.418599999999999529e-13 5.499999999999999639e-16 2.153000000000000078e-14
2.238721138568324037e+06 3.387499999999999955e-13 3.500000000000000173e-16 1.136000000000000000e-14
2.818382931264432147e+06 1.771500000000000075e-13 2.299999999999999903e-16 5.940000000000000280e-15
3.548133892335724086e+06 9.128199999999999667e-14 1.460000000000000058e-16 3.062000000000000057e-15
4.466835921509589069e+06 4.623400000000000146e-14 9.200000000000000350e-17 1.550999999999999959e-15
5.623413251903433353e+06 2.307099999999999959e-14 5.800000000000000569e-17 7.739999999999999552e-16
7.079457843841301277e+06 1.131400000000000044e-14 3.599999999999999949e-17 3.789999999999999955e-16
8.912509381337350234e+06 5.425900000000000071e-15 2.249999999999999891e-17 1.819999999999999992e-16
1.122018454301949218e+07 2.648399999999999805e-15 1.399999999999999946e-17 8.879999999999999588e-17
1.412537544622735307e+07 1.283500000000000050e-15 8.699999999999999929e-18 4.300000000000000231e-17
1.778279410038897395e+07 6.384099999999999549e-16 5.470000000000000168e-18 2.140999999999999932e-17
2.238721138568305597e+07 3.122000000000000243e-16 3.409999999999999959e-18 1.047000000000000053e-17
2.818382931264408678e+07 1.579500000000000077e-16 2.160000000000000062e-18 5.300000000000000302e-18
